KELEC sim.time(ns) run time(s) 
1 0.009091 5.214267 
50 0.454545 309.747877 
100 0.909091 732.010258 
200 1.818182 1577.020814 
352 3.200000 2849.817150 
400 3.636364 3246.479458 
500 4.545455 4062.031697 
650 5.909091 5282.345557 
700 6.363636 5689.551112 
800 7.272727 6504.218204 
850 7.727273 6911.287984 
900 8.181818 7318.676450 
950 8.636364 7726.459577 
1000 9.090909 8117.644965 
1200 10.909091 9665.100440 
1600 14.545455 13159.857058 
1800 16.363636 15839.757509 
2000 18.181818 18523.671615 
2200 20.000000 21211.070970 
2500 22.727273 26425.157139 
2800 25.454545 31921.167170 
3000 27.272727 35592.552654 
3400 30.909091 42950.163360 
3600 32.727273 46636.609832 
3800 34.545455 51559.293394 
4000 36.363636 56785.957367 
4200 38.181818 62012.400069 
4400 40.000000 67243.775304 
